1.135007967861051839e+03
8.808864983429083395e+02
1.276430366242291939e+03
2.205705677051470957e+03
2.637778603198998098e+03
2.209678803408835847e+03
2.348425456330611723e+03
2.634045695296952999e+03
2.793625606643118317e+03
3.193139700667772559e+03
3.002594445760747021e+03
2.825999142580971238e+03
2.636460078560956390e+03
2.326141312937147177e+03
2.369990863679651738e+03
2.281974906511576592e+03
1.519140198933387410e+03
9.264420711982533021e+02
6.448597744241450300e+02
4.235508842609622207e+02
7.836126830621718682e+02
1.219272140348051835e+03
1.629659379053564635e+03
2.081944484795619701e+03
2.641797327748393855e+03
2.456196713051195275e+03
2.355331695919204321e+03
2.290295301882638341e+03
2.411288130655318582e+03
2.391214370401679389e+03
1.643970742913390268e+03
1.885551857028841596e+03
1.913880986622554701e+03
1.825183474568300653e+03
1.297625967876650975e+03
8.709875576262579671e+02
-2.646175802132332819e+02
-6.176244867606372964e+02
-9.717392215449312971e+02
-9.737645376825885251e+02
-6.898173653651513177e+02
-2.949130986021975787e+02
1.120631474394472349e+02
8.911692727614479281e+02
1.516369080837158890e+03
1.768856910139375486e+03
1.901450335044413578e+03
1.731144834975907997e+03
1.611889702845580814e+03
1.522371282724758885e+03
1.385574197109528768e+03
1.293609877248957446e+03
1.349604273423761242e+03
1.187479954711957362e+03
5.981265578509198804e+02
3.660791748689527481e+01
-4.600221860047794848e+02
-9.868459142122239882e+02
-7.268484965104695448e+02
-9.070247853799321547e+02
-7.153476592426109164e+02
-4.008447796720100769e+02
1.036842239575114100e+01
6.741620965921601965e+02
1.059583448300786813e+03
1.404552899164087876e+03
1.572083195509718280e+03
1.703217888715883646e+03
1.573082702607616056e+03
1.423746043787685039e+03
1.193960759081525339e+03
1.347722019430388173e+03
1.083185516521594081e+03
1.140287971965609358e+03
8.979800965244362487e+02
-7.589168384699050307e+01
-7.884441028226029857e+02
-1.322637017119612665e+03
-1.787432702088563929e+03
-1.721839740127329151e+03
-1.526879168214354650e+03
-9.226304609856555317e+02
-1.011791901313395101e+02
3.593755121459367388e+02
8.640341413412664906e+02
5.995350740770622622e+01
-2.215814139966554194e+03
-5.048309179858890275e+03
-5.588709702025839761e+03
-5.377111688190153473e+03
-5.470541642962001788e+03
-5.987981678219589412e+03
-6.057376651130344726e+03
-5.434848319662533868e+03
-5.158388344944001801e+03
-6.296880570764746153e+03
-6.447470434813759312e+03
-3.230207824825478838e+03
-2.319151590986467454e+03
-1.671339174834550249e+03
-7.399717278714942950e+02
-1.591671128193004279e+02
8.113086128014034557e+02
1.386803560006709631e+03
1.609247222447430886e+03
1.976691159273912263e+03
2.084068666266437504e+03
2.468136655618412988e+03
2.601824294323761933e+03
2.351087181913269887e+03
2.034892266991193310e+03
2.035230978545092285e+03
2.030241512230589933e+03
1.213979377731542854e+03
4.772392812590597373e+02
-3.480375545536559798e+02
-1.200817076594615628e+03
-1.242124539667175895e+03
-9.060689814443328487e+02
-1.077670940212916548e+03
-1.108079647008528127e+03
-5.611614910870968060e+02
1.063401142829117703e+02
7.586144461582316580e+02
1.475844528245917900e+03
1.736834270663953021e+03
1.990327172144549650e+03
2.142079461258333140e+03
2.310193832703210319e+03
2.085057357530854460e+03
1.754661725789943603e+03
1.686872797716439663e+03
1.602730512400024054e+03
1.622082210714944495e+03
1.238821070369922836e+03
3.198898688179189662e+02
-2.776741729849954368e+02
-6.768142810575050135e+02
-6.904712298632747434e+02
-5.316492149718886822e+02
-8.713384456336531230e+02
-7.154962473165003303e+02
-2.001441845743389081e+02
2.907332884332515164e+02
7.233042618669810508e+02
1.278810451246084767e+03
1.174227076557240707e+03
1.231381753860262506e+03
1.269212484598337596e+03
1.678592297356650306e+03
2.167775243682953715e+03
2.015860410702583749e+03
1.774668444332307899e+03
1.686226107963909271e+03
1.205620524043752539e+03
7.308259176260812637e+02
-1.461688010437513014e+02
-1.221166712727278764e+03
-1.737101091009143147e+03
-1.776013456150920547e+03
-3.915089821538264914e+03
-5.612338956945852260e+03
-3.701532990050056469e+03
-1.369621578989282170e+03
-4.837197886259405095e+02
-1.584753560339020851e+03
7.606257662792994552e+02
1.341399266585058740e+03
2.763281296923417472e+02
-2.126441526973879718e+03
-5.099020719374651094e+02
-7.139845673510179722e+02
1.294331051808469510e+03
-9.930524194038689529e+02
-2.256120433519884045e+03
-1.955625726045700731e+03
-3.734518283180335061e+02
-2.910764083607617977e+03
-3.407739594096021392e+03
-2.116398753512049097e+03
-8.217609773877346697e+02
-2.953745344404116167e+03
-8.423485898472298459e+02
-1.569471961298821498e+03
7.286797530782811805e+01
-7.472408261601293589e+02
7.692754618926983312e+02
1.629573969242847397e+03
1.955683709404080446e+03
1.405777152854380347e+03
-6.950772981863174209e+02
1.129835062256566061e+03
-1.042640265722575577e+03
-1.803378823455607971e+03
-5.973108463067204639e+02
-1.564354794845722608e+03
-1.120543401712960076e+03
-3.817787660756036985e+03
-3.482236043561981660e+03
-1.993207029798636313e+03
-2.605621526517413258e+03
-3.282681507100321028e+02
4.897156631957559370e+01
6.970812164044840529e+02
1.018112133804630616e+03
1.468035956909980086e+03
1.885725551963630551e+03
1.845243418297444805e+03
1.716614165134542418e+03
1.794801349575755012e+03
1.672754765496192931e+03
1.718446063186433776e+03
1.210003778090865808e+03
9.975259841567964259e+02
5.611275363420569420e+02
-6.049317911539936432e+01
-1.606523699954867652e+02
-4.153876665779341124e+02
-1.128572306002883352e+03
-1.121028258809288900e+03
-1.558812557484519175e+03
-1.835931329576461621e+03
-9.155705188208413574e+02
-4.657898069500574252e+02
4.533484819947641995e+02
2.244157774041371795e+03
2.942823356777489607e+03
3.388169664318366813e+03
3.630136314768461943e+03
3.520447867025873165e+03
2.947109120607918612e+03
2.610362396124504812e+03
2.586451322068365698e+03
2.267951489018177199e+03
2.062657140782897841e+03
1.748576625693376627e+03
7.276802995585774170e+02
6.198583013539091269e+01
-1.114612254525768122e+02
2.803187377428159834e+02
5.419303430029094670e+02
6.763598962563348778e+02
9.019869976251418393e+02
1.860777396816141845e+03
2.400559455853369855e+03
2.753322510728220550e+03
2.629884158258906155e+03
2.761996103148821931e+03
2.725764839564238628e+03
2.788345363836655451e+03
2.788579529179278325e+03
3.136357423423234195e+03
3.329422148648347957e+03
2.875756364837880938e+03
2.502470814450849502e+03
2.065562440141386105e+03
1.175833988934121635e+03
1.011401245089449219e+02
-1.475200097981752947e+02
2.147171692323748289e+02
5.206632388770882471e+02
7.653784359409022500e+02
1.102140795928405169e+03
1.440016157006579078e+03
2.303048223446142401e+03
3.079047843767912582e+03
3.063716916218619644e+03
2.194003924828055460e+03
1.469907441090072552e+03
2.085316842203161741e+03
2.989307536668705325e+03
3.105077491638392530e+03
2.788500052646381391e+03
1.861673131291850723e+03
7.015978246711008524e+02
-9.678997512509831722e+02
-3.659842638822798563e+03
-5.847272199404937965e+03
-5.671376208499596032e+03
-2.578214430437081774e+03
-4.404647011482687958e+03
-6.472671177094411178e+03
-7.497411314813606623e+03
-7.706919206023528204e+03
-5.644095684777002134e+03
-4.181796146461051649e+03
-4.353825629713612216e+03
-4.907091346430179328e+03
-3.025921984593274374e+03
-6.674790291479292819e+02
-9.906324481620557663e+02
-3.323411948675364783e+03
-1.664792074005158156e+03
-3.346696967031231907e+03
-5.592152923957025450e+03
-5.382093017351573508e+03
-6.794522183109090292e+03
-8.315545406472159812e+03
-8.416210150740411336e+03
-8.601382271117761775e+03
-9.284012041135365507e+03
-7.522061076689563379e+03
-4.318427448642214586e+03
8.967169715579005924e+02
4.217313200942640833e+03
3.175711250396119340e+03
1.952914913854790484e+03
1.422898147410793626e+03
2.157728850162729032e+03
2.400369984259583362e+03
8.286444015226530837e+02
-1.301930530046104195e+02
-6.572197642521850014e+01
-6.760231600955067961e+02
-7.123121218770015730e+02
-1.736411486544981813e+02
1.074165995683215215e+03
2.483212233497798934e+03
2.723518698346243582e+03
1.598994824560237930e+03
1.772466037005702901e+03
7.228942154886128719e+02
-8.375176869061132265e+02
-1.527726572902286080e+03
-1.217039380597827858e+02
2.442611692519099961e+03
1.698287775290647005e+03
5.955322450432903452e+02
1.959339538752737553e+03
3.073802631034765454e+03
3.638957233895633181e+03
2.935793371828839554e+03
1.018476372085033177e+03
3.159350082438264735e+02
6.822142189055208519e+02
1.193506493860295677e+03
2.171839320357226825e+03
2.526207051073994080e+03
2.339556775286420816e+03
7.768667842308760783e+02
-6.847795022928430626e+02
1.877526531553126574e+02
2.052438832669251042e+03
3.719349825628740291e+03
4.186051639946331306e+03
4.022669464058556059e+03
3.474196827837723049e+03
2.372675759156309141e+03
2.073147864889579978e+03
1.455483385663195577e+03
8.136507891895946614e+02
1.933818300133552611e+03
2.393224838755938890e+03
2.112715843527289962e+03
1.893979665098809164e+03
1.606178721421476439e+03
-9.595747746048846238e+02
-5.663249210051503724e+03
-7.873917217770994284e+03
-6.050665596076865768e+03
-4.867531570140524309e+03
-1.786516807412638855e+03
1.831497349465623984e+03
2.909558204747666423e+03
3.034684747960811364e+03
2.870053152110966494e+03
2.346708299915722364e+03
1.139522903978046998e+03
1.958555615825363930e+03
3.928899153946633760e+03
3.857727897778511306e+03
3.110044463669994002e+03
2.743892400991110208e+03
2.421144191537062397e+03
7.098543303078763529e+02
-9.559256611724350705e+02
-4.294225159753111257e+03
-8.051118060476643223e+03
-9.421634735587114847e+03
-7.722680267910900511e+03
-3.200498104143635373e+03
3.958944403155362011e+02
8.726100911681030539e+02
-1.798333555001885088e+03
-3.948900951935099329e+03
-1.472103513742150426e+03
1.690971862158191016e+03
3.263389143372400213e+03
5.156204774827761867e+03
5.149367152371582051e+03
4.890901492020883779e+03
4.027715448230751008e+03
2.325778998333463278e+03
1.126101333258843624e+03
7.858183456550525534e+02
2.099008323832650831e+02
-5.947746198777393829e+02
-1.546286811321913774e+03
-2.814807000531136964e+03
-4.517262646747532926e+03
-4.519346734604863741e+03
-1.489238162672832004e+03
1.824918729576438182e+03
3.393124605285585403e+03
2.919381474867706856e+03
1.083686628931900486e+03
2.283970174901924565e+03
3.912215547041144873e+03
2.857391630351814456e+03
1.623362327784418312e+03
1.179994196258368675e+03
-2.166223094912378500e+01
-1.684485672752443634e+03
-1.367416541707436409e+03
1.164824399308279652e+02
1.545176315486380417e+03
2.136647248385108355e+02
-1.741859119774785540e+03
-1.781577327429677553e+03
-1.399972009686120600e+03
-2.953219889202468039e+03
-4.600276955760910823e+03
-2.183000128372638301e+03
-7.266737338459054740e+01
-7.622320026725241178e+02
-2.524654575601483089e+02
3.257464928107260675e+02
1.143015772884521766e+03
1.723393778924745675e+03
3.336480619899151066e+02
-1.465824972774214302e+03
1.483320176783193212e+01
3.108421866175205196e+03
4.574753524335371367e+03
4.326062789531121780e+03
3.336103838701178574e+03
2.112746781845289206e+03
1.340971430743366000e+03
-7.399719212667633883e+01
-1.044516733044654302e+03
-2.762331452888324748e+03
-4.383826042938520004e+03
-5.451764113364444711e+03
-5.007286634082557612e+03
-4.913263035167392445e+03
-2.166735905676460789e+03
2.056166635554752702e+03
2.882481409437943512e+03
8.439235645814404734e+02
-1.831920978873488650e+02
-5.860069025053539917e+02
4.302380530578785738e+02
9.257136309001251675e+02
2.885212618714819200e+03
3.687091145980275996e+03
5.301623174198140305e+02
-2.043719767168066937e+03
-3.043496765236171086e+03
-2.510471785278848074e+03
-2.148463603856087502e+03
-9.404897468507832627e+02
-3.857597788469394118e+01
-4.817818885889741942e+00
5.238225088437696968e+02
1.465473929372268003e+03
2.370078961129909658e+03
2.805602793975591794e+03
2.704114843192523949e+03
3.374627904196733652e+03
4.221189245692203258e+03
5.666904389316422566e+03
5.105740833359574935e+03
1.561638979083985987e+03
1.665481184578710838e+02
2.281525438357907205e+03
3.498562593726488103e+03
9.056684302594514975e+02
9.028945651682020070e+02
-9.177081783716485006e+02
-3.557178403707912366e+03
-7.867588200165835588e+03
-7.860061706256280559e+03
-5.600657817289843479e+03
-4.859261334485390762e+03
-4.032863900533840933e+03
-6.277491005840103753e+03
-6.597051329741615518e+03
-3.937360592018696934e+03
-1.064367029920929781e+03
-8.501380746370629140e+02
-2.593633620314333712e+03
-3.994880557977990975e+03
-5.587834091808771518e+03
-6.923408709639847075e+03
-7.002632355425193964e+03
-4.696477975281795807e+03
-2.514925153578092250e+03
-3.695983219260594524e+03
-5.140646088167262860e+03
-3.814851064933933230e+03
-3.122613966737312694e+03
-1.863964100134045339e+03
-7.758668032928009097e+02
-4.002048399063610304e+02
2.940990845405236200e+02
7.751418430056588704e+02
1.430937951650079413e+03
1.466502878015449596e+03
7.858580889421181155e+02
1.720087060802406768e+03
3.260291464383696166e+03
5.532395724716867335e+03
5.963405881551395396e+03
5.404394689816468599e+03
4.880485261567897396e+03
3.572719425010484429e+03
4.910760779297821159e+02
-2.443513693827010684e+03
-2.619027821172399854e+03
-7.524161406762756314e+02
3.078322639214998162e+03
5.721172382904318511e+03
5.641109322324117784e+03
4.636280377106563719e+03
3.751881978241413435e+03
1.349007977181167462e+03
-4.564162743069207977e+02
8.896251157215129979e+02
9.971967339033112694e+02
2.055290720091200001e+03
3.809883483256479394e+03
4.111983206734931628e+03
4.508757421347514537e+03
5.439521956402119031e+03
4.393306874861130382e+03
2.521944632648971037e+03
2.573221102025570872e+03
3.171529332280713334e+03
1.491912496135904121e+03
-1.264654051360784251e+03
-3.271208501702073590e+03
-3.457977213704205496e+03
-9.179310880123586003e+02
2.855016361702126687e+03
4.012969584982819924e+03
2.954913883177472144e+03
3.356798103504550909e+03
2.815579992372320703e+03
2.407337772029141888e+03
1.868563402597093955e+03
1.354786131769046733e+03
1.447138062102678305e+03
1.703476185869622668e+03
6.879482757676513529e+02
-1.310415207318470721e+03
-2.035758901189685275e+03
-1.912103017802454360e+03
-1.450418075092763502e+03
3.808631208024230119e+01
-9.937358764531217048e+02
-3.947978479131955737e+03
-3.016730003219630817e+03
-2.176804438007490717e+03
-2.003299289298901613e+03
-1.217208077047726874e+03
-1.053378563377250430e+03
-4.232989444083681519e+03
-5.747921784667077191e+03
-2.194201506003653321e+03
6.111174506276871625e+02
3.470297013924507041e+02
-4.575734385684072549e+02
3.820949019412359604e+01
2.059265180392188995e+03
4.646533837186791970e+03
6.323086842991509002e+03
5.793029219850880509e+03
3.767229983062306928e+03
3.558728210282531563e+03
3.140623600997736503e+03
2.344839047413413027e+03
1.221156070899809265e+03
-2.460511467562529830e+01
5.517700276516120539e+02
9.174027462164606277e+02
1.535041673672654269e+03
2.470704232834602408e+03
2.432400643471498825e+03
3.066154043796826954e+03
2.148101121576246896e+03
8.951384125074621352e+02
1.299163788582020743e+03
2.046131766453793034e+03
2.392881533821416724e+03
1.922466809509269069e+03
7.148363716353895825e+02
-5.979451233334999642e+02
-8.798620905731388575e+02
-3.934117301608351227e+03
-9.819855809441853125e+03
-1.132806340737385835e+04
-1.009469199697428849e+04
-8.519755336319985872e+03
-6.904221916163857713e+03
-5.462028615057491152e+03
-5.750261989787974926e+03
-6.371000647823279905e+03
-5.598896328065133275e+03
-3.440148759868749494e+03
-2.562821603861330914e+03
-2.255924841903812194e+03
-2.042488516851234408e+03
-7.225663349042890786e+02
1.502082462481381526e+03
2.647650819323894666e+03
3.054950577904685360e+03
2.340670249616903220e+03
6.308009439218701573e+02
-4.884305286276858737e+01
-9.173546918572187678e+02
-1.819616804393324401e+03
-1.026608231022655900e+03
-1.942588145171547183e+02
-1.536501050511018775e+03
-2.465247800527380605e+03
-2.657658794710889651e+03
-1.708830922176466629e+03
-8.655679414080748302e+02
2.902026006815229380e+02
-5.915443008286106306e+02
-3.198267984455954434e+02
1.122490280393482863e+03
1.886377564149423506e+03
1.829041678970088242e+03
1.982590039712001271e+03
3.871841162894098488e+03
2.897611261172457489e+03
1.651600868551599660e+03
1.327823016894841658e+03
1.261491719013376269e+03
1.693854039595940776e+03
2.228946596155643874e+03
1.273376013838279960e+03
8.841148300292318254e+02
1.593286665689820438e+03
1.877860291831186487e+03
2.926006124999951226e+03
2.627743781426311216e+03
1.223174457159223266e+03
-7.061406701388116858e+01
6.144129847346506494e+02
1.767250886273884589e+03
2.002882686899787132e+03
9.013320386817297276e+02
-2.159307474533731693e+03
-4.191971938598523593e+03
-1.795599973179519793e+03
-8.472747062586978473e+02
-1.035294051860467562e+03
-1.527785039768038587e+03
-1.512652236494829822e+03
-1.075627778899045552e+03
-5.613939144221013748e+02
5.929094412335424522e+02
1.469537798896290724e+03
9.714732711417483415e+02
-9.833238268504403550e+02
-2.777870261408823353e+03
-2.913074953225551326e+03
-2.314845094705969132e+03
-2.408268200241533123e+03
-2.046462578744857638e+03
-4.964725593250734050e+02
2.281906822865571485e+03
3.818785490559078880e+03
3.583065979362706003e+03
2.494714522111961287e+03
1.235968159567140674e+03
6.185621252692377681e+01
-7.659430338228748951e+02
-2.098346245821349385e+03
-1.789234810311295860e+03
-1.123709741664994226e+03
-8.397166199480381010e+02
-9.392311940652195972e+02
-1.046204555600817457e+03
3.305424613034604704e+02
1.319168636303026915e+03
1.951506870537357145e+03
2.420306693175740747e+03
2.265627510150114631e+03
9.606029275569949277e+02
1.532361285766188814e+02
-1.874217401937673912e+02
-7.793543097964841309e+02
-1.380490831860297476e+03
-8.717811743370032218e+02
-2.491184078044021135e+03
-3.293652929997004321e+03
-3.132217249066478871e+03
-9.010094459732450787e+02
1.417004317377139159e+03
1.969576245606475595e+03
1.509569797254906007e+03
1.625230925967920257e+03
2.217773616786311777e+03
2.507168835791117999e+03
2.065416963087801832e+03
1.947396896032293171e+03
6.421268861333641098e+02
6.034215003777264883e+02
1.260325578437080139e+03
1.890125813730986692e+03
1.591812489204295844e+03
5.712736070063283478e+02
3.773698376137160722e+02
5.391213828490359674e+02
3.184662174441181151e+02
-9.686310750844745598e+02
-1.877147088275916076e+03
-1.538158817227425743e+03
-2.013804864901315796e+03
-2.883094618014811203e+03
-3.216998636801644807e+03
-3.296484469734829872e+03
-3.445652692834805293e+03
-1.898439629320750782e+03
-7.799507698020224780e+02
-6.480544704471830073e+02
-8.195104654263207067e+02
-5.294685516929437199e+02
-1.069277799890687220e+03
-1.055958063775615983e+03
-1.006244505167824741e+03
-2.804067017398750181e+02
1.393653801348103570e+03
1.984979446973800577e+03
1.456851795361026689e+03
1.073053187355951195e+03
1.127386265851384906e+03
9.059304363550700145e+02
-2.133847239185467970e+02
-1.054369761022789817e+03
-4.281350307141208873e+02
9.130238103122993607e+02
1.589043123683196882e+03
2.288071909966901785e+03
2.460234889683429174e+03
2.743514219338700968e+03
2.954952044811925589e+03
2.557598892340714428e+03
2.460077430441089291e+03
2.891247989973521726e+03
2.826969221292076782e+03
2.297110816022568542e+03
2.231739960241929111e+03
2.462855012196658663e+03
1.587495504919789937e+03
3.734643159568749411e+02
-5.102899895795994780e+02
-7.567828596988030085e+02
-3.630127480865550069e+02
-5.803523525776112990e+01
-3.488815124311451399e+01
2.244751351837543041e+02
1.162078559315273878e+03
2.571926684619508706e+03
2.734799003422459464e+03
2.323413767632449890e+03
1.627827544133989704e+03
1.525078765659699229e+03
2.265144501098258388e+03
3.156059547850938998e+03
2.859941347592861348e+03
2.341777702232724550e+03
2.131345885256755537e+03
1.508447683979990643e+03
7.718506428355455000e+02
-8.703545583546255102e+02
-2.118018690855096338e+03
-2.440099960446632394e+03
-2.016589806638907021e+03
-1.496389776018179646e+03
-4.575661930142911160e+02
6.766289348655973299e+02
1.105336287815961214e+03
3.447080671357965542e+01
-2.204053191181857528e+03
-4.027179508085882844e+03
-3.916879342639195329e+03
-3.802176642449257997e+03
-3.995975200351706917e+03
-3.823226407164363991e+03
-3.504087426771882747e+03
-3.545601765920543585e+03
-3.423567987606131283e+03
-3.237877387609877132e+03
-3.587587176869106315e+03
-3.900795412839575420e+03
-4.842683292600564528e+03
-5.188408492615243631e+03
-2.942836658885009456e+03
3.561896781724457810e+02
1.211617530769137829e+03
7.525776646172323581e+02
-2.870942449726791892e+03
-3.605942585971358312e+03
-3.833333518018631366e+03
-3.676062701447016934e+03
-3.254136202892775145e+03
-2.711434932120987469e+03
-2.609843209268261489e+03
-2.746477663108278193e+03
-3.001387701533915333e+03
-3.248578536005127262e+03
-3.103121582411062718e+03
-4.947998757299006343e+02
9.166127229597709629e+02
1.037883933431010973e+03
-5.849866402121650708e+02
-1.845956647615595784e+03
4.939647731391722232e+02
7.408171466413359667e+02
8.099537277781680586e+02
1.136399755139229683e+03
2.126774779428330021e+03
2.819097867672685425e+03
3.034629604693862802e+03
2.966511934238335016e+03
2.662684090876428854e+03
2.341030689975937094e+03
2.248472874688771753e+03
2.345089693012870612e+03
2.261052760186691557e+03
1.574572907170768076e+03
1.565585733440619379e+03
1.481153699708721660e+03
1.075362868043287563e+03
2.282865255887189733e+02
-8.449699911214848953e+02
-7.585053898799694707e+02
-1.099272008012223523e+03
-8.132929237534318645e+02
-2.905500230942492408e+02
-3.738750708870363155e+02
1.247685626084531947e+02
6.375806315219830367e+02
1.377631340113733359e+03
2.375875056030085034e+03
2.464376114995699481e+03
3.256153340908346308e+03
3.324289139801425790e+03
2.908899765601597664e+03
2.645064617695721154e+03
2.286801840533286850e+03
1.605384046252574080e+03
1.586057642380322932e+03
1.540552059830029066e+03
9.056757911592892469e+02
2.866304790940486100e+02
-1.905296328805980011e+02
-1.109746232313430255e+03
-3.720871226398230192e+03
-1.944864719742579155e+03
-2.427692855327178449e+02
7.513008719157811584e+02
1.305466929334862698e+03
1.802832372561093962e+03
1.715496222360432967e+03
2.319622827124213472e+03
2.616957531422036482e+03
2.278411786632531403e+03
2.054947096793560831e+03
1.573672696663329816e+03
1.220747278363501437e+03
1.171128423366086736e+03
7.368551040456391092e+02
-3.579910533004961621e+02
-1.040509521146446559e+03
-1.423721734966188251e+03
-1.673381930525349389e+03
-2.092539694362379123e+03
-2.350272912759029623e+03
-1.897634122445963385e+03
-1.208617472022529455e+03
-4.872381735500828768e+02
4.670362468573207337e+01
7.471012147375142831e+02
6.748897155468213214e+02
8.671165275858911627e+02
1.073849640055251712e+03
5.650746400571771346e+02
7.025848805810956037e+02
5.565769719580447372e+02
5.941000221757146846e+02
6.630829407734996721e+02
2.564949432451222719e+02
-6.269674873219900491e+01
-1.128513663704371993e+03
-1.511832882369607205e+03
-1.567691391061819331e+03
-1.513183662373347943e+03
-1.150348906792920616e+03
-1.062249585893732956e+03
-6.687556512119098215e+02
-5.667714312401417374e+02
-1.332666913354001963e+02
7.695907150767200164e+02
9.377196416603931084e+02
6.841778462677083326e+02
9.520609886524125614e+02
1.196557681958919147e+03
1.129581759003609022e+03
1.171724248708251707e+03
4.209992561191245954e+02
-1.526512049891712877e+03
-4.346774275745912746e+03
-6.707885378552532529e+03
-7.483905710187959812e+03
-7.651856112864550596e+03
-3.645857211161664054e+03
-2.160019193235748844e+03
-1.816243750101783462e+03
-1.397403979973298874e+03
-1.051442966256074442e+03
-6.035029541369107164e+02
3.672577282869420969e+02
1.115841911962111681e+03
1.431262816098005032e+03
1.328415398161635039e+03
1.229084971142025552e+03
1.202230295754800409e+03
8.569493493480118786e+02
1.170254742631474983e+03
1.096153670614437488e+03
7.266289271593158219e+02
1.504634760155801132e+03
9.541997307660909655e+02
-2.148645161915168842e+02
-9.986364051045255792e+02
-1.484132917067479639e+03
-1.762360597486148436e+03
-2.166411027068731983e+03
-1.581398855282787281e+03
1.826583413173696897e+02
1.089708824815121034e+03
1.735737168422230297e+03
2.536802704094835008e+03
2.374004768823069298e+03
2.122278556718797518e+03
2.083597426572740460e+03
1.859931347486842469e+03
2.338183190748572542e+03
2.209227243558303144e+03
2.271206398386955698e+03
2.110020106710374876e+03
1.576562782602558400e+03
1.064599778396999909e+03
2.260833400707052192e+02
-1.248952143525977903e+02
-9.332935332996827071e+01
-3.692550976875098740e+02
-4.367412910700120392e+02
3.417323856335966781e+01
6.585093642432088927e+02
1.467246430178646051e+03
1.945458669667778850e+03
2.439086812209207437e+03
2.547074057925341549e+03
2.516412005066811162e+03
2.297156043357551880e+03
1.877357893849805350e+03
1.816883565111467306e+03
2.293636106982842648e+03
2.631691579599314082e+03
2.846118402232737481e+03
2.939850896328115596e+03
2.016825276432266719e+03
1.222020003822348826e+03
5.954457428439858404e+02
6.142536467354388741e+00
-9.549416042126333650e+02
-5.058374274679885616e+02
-1.117171911367090047e+02
5.154520771149041138e+02
1.194736287725474313e+03
1.988212564129901921e+03
2.435818103180551589e+03
2.633646218373670308e+03
2.657717673202599144e+03
1.744962089126395540e+03
1.113813307009112776e+02
-2.534166121039631435e+03
-4.302685732488384929e+03
-4.996072834173907722e+03
-5.357360478719187086e+03
-5.421590811816307905e+03
-5.689717595277243163e+03
-6.459620522414409606e+03
-6.729301765124052508e+03
-7.123880739903926951e+03
-6.956404136086118342e+03
-6.598875411267263189e+03
-6.243297028070647684e+03
-5.578589713960833251e+03
-4.189757265764434123e+03
-1.173739105757368407e+03
-9.614378827880555036e+02
9.811403498868570523e+02
2.606997335106911578e+03
-2.867990058976760679e+02
-3.146230695948217544e+03
-3.116336293232158368e+03
-2.314074040241139755e+03
-2.645354858431897355e+03
-3.100147539330087511e+03
-3.959421912384178086e+03
-3.982220796382404842e+03
-4.370578900304972194e+03
-4.545469229914140669e+03
-4.186841065277355483e+03
-3.788686145756286805e+03
-8.020850040773876799e+02
1.405964865959535246e+03
2.032572828328313108e+03
2.454821007852917774e+03
2.875841206700728435e+03
3.413647191988342911e+03
3.896151397548606383e+03
4.001364538300646018e+03
3.667428829155380754e+03
3.096377787560904835e+03
2.467132041353236218e+03
1.737776685502791679e+03
2.103379869757053712e+03
2.363041932857033316e+03
2.388767578275239885e+03
2.686498683498868104e+03
2.561198918832808886e+03
1.735914625653662142e+03
7.455954014981421096e+02
5.612286238184244667e+02
5.348349339801659426e+02
6.345059406610656652e+02
3.773916237821352979e+02
7.977484703130796788e+02
1.899495675065646765e+03
2.538680713533469316e+03
2.759392786233615880e+03
2.709581229531745521e+03
2.761306976899134042e+03
3.033532857379580037e+03
3.083239631803310658e+03
2.437498074178280604e+03
1.893295410575477035e+03
1.962593428763037537e+03
2.021494201325291442e+03
1.701058750860780719e+03
9.151474670444538333e+02
4.982903333848560123e+02
5.708110283542166599e+02
2.551013931161792243e+02
-7.019032517360021757e+02
-1.037612296138627926e+03
-3.599388731049938315e+02
3.633439412471416290e+02
1.163201129818368827e+03
1.996662231391264868e+03
2.074800730462422052e+03
1.987631843157119420e+03
1.912177007113393984e+03
1.848413493291513305e+03
1.732292520531629862e+03
1.684562429994912236e+03
1.923419676057291554e+03
1.950929573526707372e+03
1.534985027062382187e+03
1.220538914860065006e+03
3.103303295579351584e+02
-4.865288092483623359e+02
-4.820496447737356220e+02
-5.022777990149369316e+02
-7.132818618362495044e+02
-8.851031403868188363e+02
-4.146999424331319233e+02
1.219737414337748618e+02
6.139688953729380501e+02
7.792997460601103512e+02
1.074964438139306367e+03
9.219079145303861651e+02
1.012129448649941310e+03
1.210696543071375345e+03
1.337534506171927205e+03
1.434587089516751576e+03
1.253864864015006560e+03
1.357390520365350540e+03
1.310214609100183679e+03
1.132214915706498459e+03
2.654295700392283948e+02
-7.411942931923501874e+02
-1.309723189748732239e+03
-1.414123677577925946e+03
-1.195464040141420583e+03
-1.352766418298488361e+03
-1.211110348387263230e+03
-2.555043774320116938e+02
2.271622069022176049e+02
3.748314949297896419e+02
4.525465197459815840e+02
5.083542482546852739e+02
1.095220537149166148e+03
1.518123941664619451e+03
4.530744015159601759e+02
-1.631006559818429423e+03
-4.663147336564320540e+03
-5.415281840666531025e+03
-5.673491135998073332e+03
-5.494775543078166265e+03
-5.494080092881351447e+03
-6.017196014646577169e+03
-6.281473708437321875e+03
-6.845948452010736219e+03
-7.373619489279431036e+03
-7.573546971618997304e+03
-6.949686265820413610e+03
-2.720942233990194381e+03
1.105535981076132686e+02
1.292827966502409481e+03
1.197989389523943146e+03
9.160458038288471698e+02
9.669796874574385583e+02
8.407520153405233714e+02
4.383397674505602026e+02
4.767803747654829749e+02
6.771274097744810661e+02
6.183303148735567447e+02
1.322380435299000737e+03
1.390247370338116525e+03
7.849552943122293982e+02
4.485058666772291645e+02
6.089299519192696408e+01
-1.818814658116179146e+02
-5.915130053758816508e+00
-2.602465226765621651e+02
-6.385517430929752436e+01
3.423514716401385272e+02
9.523788690113489110e+02
1.728200113695152140e+03
1.947885995614263038e+03
1.960448370139354893e+03
2.050905649742442620e+03
1.966318025763288688e+03
1.687682109974601872e+03
1.537948704035597302e+03
1.374150209317344434e+03
1.302306177974887078e+03
1.234307814388319002e+03
1.208232357800742420e+03
4.181808339920368667e+02
-2.829130403661596347e+02
-5.270716321593006342e+02
-7.633016489042080366e+02
-6.805583631346678430e+02
-6.188622839295222775e+02
-6.522627925183265916e+02
-4.048087021006986106e+02
-3.851023435642524362e+01
6.726940133232081962e+02
1.105957195736694075e+03
1.176426686897296577e+03
7.309864535536092944e+02
5.766504878972374399e+02
8.775269721891180552e+02
7.816315845590626168e+02
7.821127188594894051e+02
1.183053063963054228e+03
1.395345634876777467e+03
5.167600674564279188e+02
-2.115091861415263566e+02
-8.372812851377003653e+02
-6.808417789902061941e+02
-4.272136919652838856e+02
-9.742793166578034061e+02
-1.811110463330800030e+03
-1.583832979745149487e+03
-6.204018602100621820e+02
9.335445298891852417e+01
1.944229028544443167e+02
4.817477729074908552e+02
4.123627783066197594e+02
4.382967274127979636e+02
5.206506610304625156e+02
6.334581947984895578e+02
8.935628589460091007e+02
7.879977421296849798e+02
6.578379235413610786e+02
5.461653232207954716e+02
4.899739416763666213e+02
-3.838185804151019624e+02
-7.321369323740113941e+02
